


A.  .plot_7.curve_1.TIME (sec)
B.  .plot_7.curve_1.y_data (newton)

       A               B         
 0.000000E+00   -7.361539E+00   
 1.000000E-03   -4.206313E-01   
 2.000000E-03    5.294591E+00   
 3.000000E-03    9.965054E+00   
 4.000000E-03    1.377585E+01   
 5.000000E-03    1.688716E+01   
 6.000000E-03    1.942223E+01   
 7.000000E-03    2.148395E+01   
 8.000000E-03    2.315593E+01   
 9.000000E-03    2.450462E+01   
 1.000000E-02    2.557154E+01   
 1.100000E-02    2.643573E+01   
 1.200000E-02    2.712616E+01   
 1.300000E-02    2.766670E+01   
 1.400000E-02    2.808231E+01   
 1.500000E-02    2.840307E+01   
 1.600000E-02    2.864528E+01   
 1.700000E-02    2.882451E+01   
 1.800000E-02    2.895518E+01   
 1.900000E-02    2.904873E+01   
 2.000000E-02    2.911494E+01   
 2.100000E-02    2.916203E+01   
 2.200000E-02    2.919687E+01   
 2.300000E-02    2.922518E+01   
 2.400000E-02    2.925163E+01   
 2.500000E-02    2.927997E+01   
 2.600000E-02    2.931311E+01   
 2.700000E-02    2.935317E+01   
 2.800000E-02    2.940159E+01   
 2.900000E-02    2.945915E+01   
 3.000000E-02    2.952604E+01   
 3.100000E-02    2.960193E+01   
 3.200000E-02    2.968605E+01   
 3.300000E-02    2.977719E+01   
 3.400000E-02    2.987385E+01   
 3.500000E-02    2.997423E+01   
 3.600000E-02    3.007635E+01   
 3.700000E-02    3.017809E+01   
 3.800000E-02    3.027726E+01   
 3.900000E-02    3.037170E+01   
 4.000000E-02    3.045929E+01   
 4.100000E-02    3.053805E+01   
 4.200000E-02    3.060620E+01   
 4.300000E-02    3.066216E+01   
 4.400000E-02    3.070467E+01   
 4.500000E-02    3.073275E+01   
 4.600000E-02    3.074578E+01   
 4.700000E-02    3.074348E+01   
 4.800000E-02    3.072597E+01   
 4.900000E-02    3.069370E+01   
 5.000000E-02    3.064751E+01   
 5.100000E-02    3.058855E+01   
 5.200000E-02    3.051828E+01   
 5.300000E-02    3.043847E+01   
 5.400000E-02    3.035109E+01   
 5.500000E-02    3.025830E+01   
 5.600000E-02    3.016239E+01   
 5.700000E-02    3.006573E+01   
 5.800000E-02    2.997071E+01   
 5.900000E-02    2.987968E+01   
 6.000000E-02    2.979487E+01   
 6.100000E-02    2.971838E+01   
 6.200000E-02    2.965210E+01   
 6.300000E-02    2.959766E+01   
 6.400000E-02    2.955640E+01   
 6.500000E-02    2.952934E+01   
 6.600000E-02    2.951715E+01   
 6.700000E-02    2.952012E+01   
 6.800000E-02    2.953820E+01   
 6.900000E-02    2.957092E+01   
 7.000000E-02    2.961749E+01   
 7.100000E-02    2.967676E+01   
 7.200000E-02    2.974727E+01   
 7.300000E-02    2.982729E+01   
 7.400000E-02    2.991484E+01   
 7.500000E-02    3.000777E+01   
 7.600000E-02    3.010379E+01   
 7.700000E-02    3.020054E+01   
 7.800000E-02    3.029563E+01   
 7.900000E-02    3.038673E+01   
 8.000000E-02    3.047158E+01   
 8.100000E-02    3.054811E+01   
 8.200000E-02    3.061443E+01   
 8.300000E-02    3.066889E+01   
 8.400000E-02    3.071018E+01   
 8.500000E-02    3.073725E+01   
 8.600000E-02    3.074946E+01   
 8.700000E-02    3.074650E+01   
 8.800000E-02    3.072843E+01   
 8.900000E-02    3.069572E+01   
 9.000000E-02    3.064915E+01   
 9.100000E-02    3.058989E+01   
 9.200000E-02    3.051938E+01   
 9.300000E-02    3.043937E+01   
 9.400000E-02    3.035182E+01   
 9.500000E-02    3.025889E+01   
 9.600000E-02    3.016287E+01   
 9.700000E-02    3.006613E+01   
 9.800000E-02    2.997104E+01   
 9.900000E-02    2.987994E+01   
 1.000000E-01    2.979508E+01   
 1.010000E-01    2.971856E+01   
 1.020000E-01    2.965224E+01   
 1.030000E-01    2.959777E+01   
 1.040000E-01    2.955649E+01   
 1.050000E-01    2.952941E+01   
 1.060000E-01    2.951721E+01   
 1.070000E-01    2.952017E+01   
 1.080000E-01    2.953823E+01   
 1.090000E-01    2.957095E+01   
 1.100000E-01    2.961751E+01   
 1.110000E-01    2.967678E+01   
 1.120000E-01    2.974728E+01   
 1.130000E-01    2.982729E+01   
 1.140000E-01    2.991484E+01   
 1.150000E-01    3.000777E+01   
 1.160000E-01    3.010379E+01   
 1.170000E-01    3.020053E+01   
 1.180000E-01    3.029563E+01   
 1.190000E-01    3.038672E+01   
 1.200000E-01    3.047158E+01   
 1.210000E-01    3.054811E+01   
 1.220000E-01    3.061442E+01   
 1.230000E-01    3.066889E+01   
 1.240000E-01    3.071017E+01   
 1.250000E-01    3.073725E+01   
 1.260000E-01    3.074945E+01   
 1.270000E-01    3.074649E+01   
 1.280000E-01    3.072842E+01   
 1.290000E-01    3.069571E+01   
 1.300000E-01    3.064915E+01   
 1.310000E-01    3.058988E+01   
 1.320000E-01    3.051937E+01   
 1.330000E-01    3.043936E+01   
 1.340000E-01    3.035181E+01   
 1.350000E-01    3.025889E+01   
 1.360000E-01    3.016287E+01   
 1.370000E-01    3.006612E+01   
 1.380000E-01    2.997103E+01   
 1.390000E-01    2.987993E+01   
 1.400000E-01    2.979507E+01   
 1.410000E-01    2.971855E+01   
 1.420000E-01    2.965223E+01   
 1.430000E-01    2.959776E+01   
 1.440000E-01    2.955648E+01   
 1.450000E-01    2.952940E+01   
 1.460000E-01    2.951720E+01   
 1.470000E-01    2.952016E+01   
 1.480000E-01    2.953822E+01   
 1.490000E-01    2.957094E+01   
 1.500000E-01    2.961750E+01   
 1.510000E-01    2.967677E+01   
 1.520000E-01    2.974727E+01   
 1.530000E-01    2.982728E+01   
 1.540000E-01    2.991483E+01   
 1.550000E-01    3.000776E+01   
 1.560000E-01    3.010378E+01   
 1.570000E-01    3.020053E+01   
 1.580000E-01    3.029562E+01   
 1.590000E-01    3.038671E+01   
 1.600000E-01    3.047157E+01   
 1.610000E-01    3.054810E+01   
 1.620000E-01    3.061441E+01   
 1.630000E-01    3.066888E+01   
 1.640000E-01    3.071016E+01   
 1.650000E-01    3.073724E+01   
 1.660000E-01    3.074944E+01   
 1.670000E-01    3.074648E+01   
 1.680000E-01    3.072842E+01   
 1.690000E-01    3.069570E+01   
 1.700000E-01    3.064914E+01   
 1.710000E-01    3.058987E+01   
 1.720000E-01    3.051937E+01   
 1.730000E-01    3.043935E+01   
 1.740000E-01    3.035180E+01   
 1.750000E-01    3.025888E+01   
 1.760000E-01    3.016286E+01   
 1.770000E-01    3.006611E+01   
 1.780000E-01    2.997102E+01   
 1.790000E-01    2.987992E+01   
 1.800000E-01    2.979506E+01   
 1.810000E-01    2.971854E+01   
 1.820000E-01    2.965222E+01   
 1.830000E-01    2.959775E+01   
 1.840000E-01    2.955647E+01   
 1.850000E-01    2.952940E+01   
 1.860000E-01    2.951719E+01   
 1.870000E-01    2.952015E+01   
 1.880000E-01    2.953821E+01   
 1.890000E-01    2.957093E+01   
 1.900000E-01    2.961749E+01   
 1.910000E-01    2.967676E+01   
 1.920000E-01    2.974726E+01   
 1.930000E-01    2.982728E+01   
 1.940000E-01    2.991482E+01   
 1.950000E-01    3.000775E+01   
 1.960000E-01    3.010377E+01   
 1.970000E-01    3.020052E+01   
 1.980000E-01    3.029561E+01   
 1.990000E-01    3.038670E+01   
 2.000000E-01    3.047156E+01   
 2.010000E-01    3.054809E+01   
 2.020000E-01    3.061440E+01   
 2.030000E-01    3.066887E+01   
 2.040000E-01    3.071015E+01   
 2.050000E-01    3.073723E+01   
 2.060000E-01    3.074943E+01   
 2.070000E-01    3.074647E+01   
 2.080000E-01    3.072841E+01   
 2.090000E-01    3.069569E+01   
 2.100000E-01    3.064913E+01   
 2.110000E-01    3.058986E+01   
 2.120000E-01    3.051936E+01   
 2.130000E-01    3.043934E+01   
 2.140000E-01    3.035180E+01   
 2.150000E-01    3.025887E+01   
 2.160000E-01    3.016285E+01   
 2.170000E-01    3.006610E+01   
 2.180000E-01    2.997101E+01   
 2.190000E-01    2.987991E+01   
 2.200000E-01    2.979506E+01   
 2.210000E-01    2.971853E+01   
 2.220000E-01    2.965221E+01   
 2.230000E-01    2.959775E+01   
 2.240000E-01    2.955646E+01   
 2.250000E-01    2.952939E+01   
 2.260000E-01    2.951718E+01   
 2.270000E-01    2.952014E+01   
 2.280000E-01    2.953821E+01   
 2.290000E-01    2.957092E+01   
 2.300000E-01    2.961748E+01   
 2.310000E-01    2.967675E+01   
 2.320000E-01    2.974725E+01   
 2.330000E-01    2.982727E+01   
 2.340000E-01    2.991481E+01   
 2.350000E-01    3.000774E+01   
 2.360000E-01    3.010376E+01   
 2.370000E-01    3.020051E+01   
 2.380000E-01    3.029560E+01   
 2.390000E-01    3.038670E+01   
 2.400000E-01    3.047155E+01   
 2.410000E-01    3.054808E+01   
 2.420000E-01    3.061439E+01   
 2.430000E-01    3.066886E+01   
 2.440000E-01    3.071014E+01   
 2.450000E-01    3.073722E+01   
 2.460000E-01    3.074943E+01   
 2.470000E-01    3.074646E+01   
 2.480000E-01    3.072840E+01   
 2.490000E-01    3.069568E+01   
 2.500000E-01    3.064912E+01   
 2.510000E-01    3.058985E+01   
 2.520000E-01    3.051935E+01   
 2.530000E-01    3.043934E+01   
 2.540000E-01    3.035179E+01   
 2.550000E-01    3.025886E+01   
 2.560000E-01    3.016284E+01   
 2.570000E-01    3.006609E+01   
 2.580000E-01    2.997100E+01   
 2.590000E-01    2.987990E+01   
 2.600000E-01    2.979505E+01   
 2.610000E-01    2.971852E+01   
 2.620000E-01    2.965221E+01   
 2.630000E-01    2.959774E+01   
 2.640000E-01    2.955646E+01   
 2.650000E-01    2.952938E+01   
 2.660000E-01    2.951717E+01   
 2.670000E-01    2.952013E+01   
 2.680000E-01    2.953820E+01   
 2.690000E-01    2.957091E+01   
 2.700000E-01    2.961748E+01   
 2.710000E-01    2.967674E+01   
 2.720000E-01    2.974725E+01   
 2.730000E-01    2.982726E+01   
 2.740000E-01    2.991481E+01   
 2.750000E-01    3.000773E+01   
 2.760000E-01    3.010375E+01   
 2.770000E-01    3.020050E+01   
 2.780000E-01    3.029559E+01   
 2.790000E-01    3.038669E+01   
 2.800000E-01    3.047154E+01   
 2.810000E-01    3.054807E+01   
 2.820000E-01    3.061438E+01   
 2.830000E-01    3.066885E+01   
 2.840000E-01    3.071013E+01   
 2.850000E-01    3.073721E+01   
 2.860000E-01    3.074942E+01   
 2.870000E-01    3.074645E+01   
 2.880000E-01    3.072839E+01   
 2.890000E-01    3.069567E+01   
 2.900000E-01    3.064911E+01   
 2.910000E-01    3.058985E+01   
 2.920000E-01    3.051934E+01   
 2.930000E-01    3.043933E+01   
 2.940000E-01    3.035178E+01   
 2.950000E-01    3.025885E+01   
 2.960000E-01    3.016283E+01   
 2.970000E-01    3.006608E+01   
 2.980000E-01    2.997099E+01   
 2.990000E-01    2.987990E+01   
 3.000000E-01    2.979504E+01   
 3.010000E-01    2.971851E+01   
 3.020000E-01    2.965220E+01   
 3.030000E-01    2.959773E+01   
 3.040000E-01    2.955645E+01   
 3.050000E-01    2.952937E+01   
 3.060000E-01    2.951716E+01   
 3.070000E-01    2.952013E+01   
 3.080000E-01    2.953819E+01   
 3.090000E-01    2.957090E+01   
 3.100000E-01    2.961747E+01   
 3.110000E-01    2.967673E+01   
 3.120000E-01    2.974724E+01   
 3.130000E-01    2.982725E+01   
 3.140000E-01    2.991480E+01   
 3.150000E-01    3.000773E+01   
 3.160000E-01    3.010374E+01   
 3.170000E-01    3.020049E+01   
 3.180000E-01    3.029558E+01   
 3.190000E-01    3.038668E+01   
 3.200000E-01    3.047153E+01   
 3.210000E-01    3.054806E+01   
 3.220000E-01    3.061438E+01   
 3.230000E-01    3.066884E+01   
 3.240000E-01    3.071013E+01   
 3.250000E-01    3.073720E+01   
 3.260000E-01    3.074941E+01   
 3.270000E-01    3.074644E+01   
 3.280000E-01    3.072838E+01   
 3.290000E-01    3.069567E+01   
 3.300000E-01    3.064910E+01   
 3.310000E-01    3.058984E+01   
 3.320000E-01    3.051933E+01   
 3.330000E-01    3.043932E+01   
 3.340000E-01    3.035177E+01   
 3.350000E-01    3.025884E+01   
 3.360000E-01    3.016282E+01   
 3.370000E-01    3.006608E+01   
 3.380000E-01    2.997098E+01   
 3.390000E-01    2.987989E+01   
 3.400000E-01    2.979503E+01   
 3.410000E-01    2.971850E+01   
 3.420000E-01    2.965219E+01   
 3.430000E-01    2.959772E+01   
 3.440000E-01    2.955644E+01   
 3.450000E-01    2.952936E+01   
 3.460000E-01    2.951715E+01   
 3.470000E-01    2.952012E+01   
 3.480000E-01    2.953818E+01   
 3.490000E-01    2.957090E+01   
 3.500000E-01    2.961746E+01   
 3.510000E-01    2.967672E+01   
 3.520000E-01    2.974723E+01   
 3.530000E-01    2.982724E+01   
 3.540000E-01    2.991479E+01   
 3.550000E-01    3.000772E+01   
 3.560000E-01    3.010374E+01   
 3.570000E-01    3.020048E+01   
 3.580000E-01    3.029557E+01   
 3.590000E-01    3.038667E+01   
 3.600000E-01    3.047153E+01   
 3.610000E-01    3.054805E+01   
 3.620000E-01    3.061437E+01   
 3.630000E-01    3.066884E+01   
 3.640000E-01    3.071012E+01   
 3.650000E-01    3.073719E+01   
 3.660000E-01    3.074940E+01   
 3.670000E-01    3.074644E+01   
 3.680000E-01    3.072837E+01   
 3.690000E-01    3.069566E+01   
 3.700000E-01    3.064909E+01   
 3.710000E-01    3.058983E+01   
 3.720000E-01    3.051932E+01   
 3.730000E-01    3.043931E+01   
 3.740000E-01    3.035176E+01   
 3.750000E-01    3.025883E+01   
 3.760000E-01    3.016282E+01   
 3.770000E-01    3.006607E+01   
 3.780000E-01    2.997098E+01   
 3.790000E-01    2.987988E+01   
 3.800000E-01    2.979502E+01   
 3.810000E-01    2.971850E+01   
 3.820000E-01    2.965218E+01   
 3.830000E-01    2.959771E+01   
 3.840000E-01    2.955643E+01   
 3.850000E-01    2.952935E+01   
 3.860000E-01    2.951715E+01   
 3.870000E-01    2.952011E+01   
 3.880000E-01    2.953817E+01   
 3.890000E-01    2.957089E+01   
 3.900000E-01    2.961745E+01   
 3.910000E-01    2.967672E+01   
 3.920000E-01    2.974722E+01   
 3.930000E-01    2.982723E+01   
 3.940000E-01    2.991478E+01   
 3.950000E-01    3.000771E+01   
 3.960000E-01    3.010373E+01   
 3.970000E-01    3.020048E+01   
 3.980000E-01    3.029557E+01   
 3.990000E-01    3.038666E+01   
 4.000000E-01    3.047152E+01   
 4.010000E-01    3.054805E+01   
 4.020000E-01    3.061436E+01   
 4.030000E-01    3.066883E+01   
 4.040000E-01    3.071011E+01   
 4.050000E-01    3.073719E+01   
 4.060000E-01    3.074939E+01   
 4.070000E-01    3.074643E+01   
 4.080000E-01    3.072837E+01   
 4.090000E-01    3.069565E+01   
 4.100000E-01    3.064909E+01   
 4.110000E-01    3.058982E+01   
 4.120000E-01    3.051932E+01   
 4.130000E-01    3.043930E+01   
 4.140000E-01    3.035175E+01   
 4.150000E-01    3.025883E+01   
 4.160000E-01    3.016281E+01   
 4.170000E-01    3.006606E+01   
 4.180000E-01    2.997097E+01   
 4.190000E-01    2.987987E+01   
 4.200000E-01    2.979502E+01   
 4.210000E-01    2.971849E+01   
 4.220000E-01    2.965217E+01   
 4.230000E-01    2.959770E+01   
 4.240000E-01    2.955642E+01   
 4.250000E-01    2.952935E+01   
 4.260000E-01    2.951714E+01   
 4.270000E-01    2.952010E+01   
 4.280000E-01    2.953817E+01   
 4.290000E-01    2.957088E+01   
 4.300000E-01    2.961744E+01   
 4.310000E-01    2.967671E+01   
 4.320000E-01    2.974721E+01   
 4.330000E-01    2.982723E+01   
 4.340000E-01    2.991477E+01   
 4.350000E-01    3.000770E+01   
 4.360000E-01    3.010372E+01   
 4.370000E-01    3.020047E+01   
 4.380000E-01    3.029556E+01   
 4.390000E-01    3.038666E+01   
 4.400000E-01    3.047151E+01   
 4.410000E-01    3.054804E+01   
 4.420000E-01    3.061435E+01   
 4.430000E-01    3.066882E+01   
 4.440000E-01    3.071010E+01   
 4.450000E-01    3.073718E+01   
 4.460000E-01    3.074939E+01   
 4.470000E-01    3.074642E+01   
 4.480000E-01    3.072836E+01   
 4.490000E-01    3.069564E+01   
 4.500000E-01    3.064908E+01   
 4.510000E-01    3.058981E+01   
 4.520000E-01    3.051931E+01   
 4.530000E-01    3.043930E+01   
 4.540000E-01    3.035175E+01   
 4.550000E-01    3.025882E+01   
 4.560000E-01    3.016280E+01   
 4.570000E-01    3.006605E+01   
 4.580000E-01    2.997096E+01   
 4.590000E-01    2.987986E+01   
 4.600000E-01    2.979501E+01   
 4.610000E-01    2.971848E+01   
 4.620000E-01    2.965217E+01   
 4.630000E-01    2.959770E+01   
 4.640000E-01    2.955642E+01   
 4.650000E-01    2.952934E+01   
 4.660000E-01    2.951713E+01   
 4.670000E-01    2.952010E+01   
 4.680000E-01    2.953816E+01   
 4.690000E-01    2.957087E+01   
 4.700000E-01    2.961744E+01   
 4.710000E-01    2.967670E+01   
 4.720000E-01    2.974721E+01   
 4.730000E-01    2.982722E+01   
 4.740000E-01    2.991477E+01   
 4.750000E-01    3.000769E+01   
 4.760000E-01    3.010371E+01   
 4.770000E-01    3.020046E+01   
 4.780000E-01    3.029555E+01   
 4.790000E-01    3.038665E+01   
 4.800000E-01    3.047150E+01   
 4.810000E-01    3.054803E+01   
 4.820000E-01    3.061435E+01   
 4.830000E-01    3.066881E+01   
 4.840000E-01    3.071009E+01   
 4.850000E-01    3.073717E+01   
 4.860000E-01    3.074938E+01   
 4.870000E-01    3.074641E+01   
 4.880000E-01    3.072835E+01   
 4.890000E-01    3.069564E+01   
 4.900000E-01    3.064907E+01   
 4.910000E-01    3.058981E+01   
 4.920000E-01    3.051930E+01   
 4.930000E-01    3.043929E+01   
 4.940000E-01    3.035174E+01   
 4.950000E-01    3.025881E+01   
 4.960000E-01    3.016279E+01   
 4.970000E-01    3.006605E+01   
 4.980000E-01    2.997095E+01   
 4.990000E-01    2.987986E+01   
 5.000000E-01    2.979500E+01   
 5.010000E-01    2.971847E+01   
 5.020000E-01    2.965216E+01   
 5.030000E-01    2.959769E+01   
 5.040000E-01    2.955641E+01   
 5.050000E-01    2.952933E+01   
 5.060000E-01    2.951712E+01   
 5.070000E-01    2.952009E+01   
 5.080000E-01    2.953815E+01   
 5.090000E-01    2.957087E+01   
 5.100000E-01    2.961743E+01   
 5.110000E-01    2.967669E+01   
 5.120000E-01    2.974720E+01   
 5.130000E-01    2.982721E+01   
 5.140000E-01    2.991476E+01   
 5.150000E-01    3.000769E+01   
 5.160000E-01    3.010371E+01   
 5.170000E-01    3.020045E+01   
 5.180000E-01    3.029554E+01   
 5.190000E-01    3.038664E+01   
 5.200000E-01    3.047150E+01   
 5.210000E-01    3.054802E+01   
 5.220000E-01    3.061434E+01   
 5.230000E-01    3.066881E+01   
 5.240000E-01    3.071009E+01   
 5.250000E-01    3.073716E+01   
 5.260000E-01    3.074937E+01   
 5.270000E-01    3.074641E+01   
 5.280000E-01    3.072834E+01   
 5.290000E-01    3.069563E+01   
 5.300000E-01    3.064906E+01   
 5.310000E-01    3.058980E+01   
 5.320000E-01    3.051929E+01   
 5.330000E-01    3.043928E+01   
 5.340000E-01    3.035173E+01   
 5.350000E-01    3.025881E+01   
 5.360000E-01    3.016279E+01   
 5.370000E-01    3.006604E+01   
 5.380000E-01    2.997095E+01   
 5.390000E-01    2.987985E+01   
 5.400000E-01    2.979499E+01   
 5.410000E-01    2.971847E+01   
 5.420000E-01    2.965215E+01   
 5.430000E-01    2.959768E+01   
 5.440000E-01    2.955640E+01   
 5.450000E-01    2.952932E+01   
 5.460000E-01    2.951712E+01   
 5.470000E-01    2.952008E+01   
 5.480000E-01    2.953814E+01   
 5.490000E-01    2.957086E+01   
 5.500000E-01    2.961742E+01   
 5.510000E-01    2.967669E+01   
 5.520000E-01    2.974719E+01   
 5.530000E-01    2.982720E+01   
 5.540000E-01    2.991475E+01   
 5.550000E-01    3.000768E+01   
 5.560000E-01    3.010370E+01   
 5.570000E-01    3.020045E+01   
 5.580000E-01    3.029554E+01   
 5.590000E-01    3.038663E+01   
 5.600000E-01    3.047149E+01   
 5.610000E-01    3.054802E+01   
 5.620000E-01    3.061433E+01   
 5.630000E-01    3.066880E+01   
 5.640000E-01    3.071008E+01   
 5.650000E-01    3.073716E+01   
 5.660000E-01    3.074936E+01   
 5.670000E-01    3.074640E+01   
 5.680000E-01    3.072834E+01   
 5.690000E-01    3.069562E+01   
 5.700000E-01    3.064906E+01   
 5.710000E-01    3.058979E+01   
 5.720000E-01    3.051929E+01   
 5.730000E-01    3.043927E+01   
 5.740000E-01    3.035173E+01   
 5.750000E-01    3.025880E+01   
 5.760000E-01    3.016278E+01   
 5.770000E-01    3.006603E+01   
 5.780000E-01    2.997094E+01   
 5.790000E-01    2.987984E+01   
 5.800000E-01    2.979499E+01   
 5.810000E-01    2.971846E+01   
 5.820000E-01    2.965214E+01   
 5.830000E-01    2.959768E+01   
 5.840000E-01    2.955639E+01   
 5.850000E-01    2.952932E+01   
 5.860000E-01    2.951711E+01   
 5.870000E-01    2.952007E+01   
 5.880000E-01    2.953814E+01   
 5.890000E-01    2.957085E+01   
 5.900000E-01    2.961741E+01   
 5.910000E-01    2.967668E+01   
 5.920000E-01    2.974719E+01   
 5.930000E-01    2.982720E+01   
 5.940000E-01    2.991475E+01   
 5.950000E-01    3.000767E+01   
 5.960000E-01    3.010369E+01   
 5.970000E-01    3.020044E+01   
 5.980000E-01    3.029553E+01   
 5.990000E-01    3.038663E+01   
 6.000000E-01    3.047148E+01   
 6.010000E-01    3.054801E+01   
