


A.  .plot_2.curve_1.TIME (sec)
B.  .plot_2.curve_1.y_data (newton)
C.  .plot_2.curve_2.y_data (newton)

       A               B               C         
 0.000000E+00    4.876007E+02    4.876007E+02   
 1.000000E-03    3.602056E+02    3.602056E+02   
 2.000000E-03    2.583436E+02    2.583436E+02   
 3.000000E-03    1.840110E+02    1.840110E+02   
 4.000000E-03    1.281636E+02    1.281636E+02   
 5.000000E-03    8.655454E+01    8.655454E+01   
 6.000000E-03    5.574273E+01    5.574273E+01   
 7.000000E-03    3.295625E+01    3.295625E+01   
 8.000000E-03    1.609483E+01    1.609483E+01   
 9.000000E-03    3.596180E+00    3.596180E+00   
 1.000000E-02   -5.691182E+00   -5.691182E+00   
 1.100000E-02   -1.261191E+01   -1.261191E+01   
 1.200000E-02   -1.778409E+01   -1.778409E+01   
 1.300000E-02   -2.165941E+01   -2.165941E+01   
 1.400000E-02   -2.456771E+01   -2.456771E+01   
 1.500000E-02   -2.674982E+01   -2.674982E+01   
 1.600000E-02   -2.838146E+01   -2.838146E+01   
 1.700000E-02   -2.959093E+01   -2.959093E+01   
 1.800000E-02   -3.047183E+01   -3.047183E+01   
 1.900000E-02   -3.109254E+01   -3.109254E+01   
 2.000000E-02   -3.150300E+01   -3.150300E+01   
 2.100000E-02   -3.173971E+01   -3.173971E+01   
 2.200000E-02   -3.182945E+01   -3.182945E+01   
 2.300000E-02   -3.179185E+01   -3.179185E+01   
 2.400000E-02   -3.164142E+01   -3.164142E+01   
 2.500000E-02   -3.138890E+01   -3.138890E+01   
 2.600000E-02   -3.104235E+01   -3.104235E+01   
 2.700000E-02   -3.060788E+01   -3.060788E+01   
 2.800000E-02   -3.009022E+01   -3.009022E+01   
 2.900000E-02   -2.949309E+01   -2.949309E+01   
 3.000000E-02   -2.881953E+01   -2.881953E+01   
 3.100000E-02   -2.807208E+01   -2.807208E+01   
 3.200000E-02   -2.725299E+01   -2.725299E+01   
 3.300000E-02   -2.636426E+01   -2.636426E+01   
 3.400000E-02   -2.540778E+01   -2.540778E+01   
 3.500000E-02   -2.438536E+01   -2.438536E+01   
 3.600000E-02   -2.329878E+01   -2.329878E+01   
 3.700000E-02   -2.214983E+01   -2.214983E+01   
 3.800000E-02   -2.094033E+01   -2.094033E+01   
 3.900000E-02   -1.967211E+01   -1.967211E+01   
 4.000000E-02   -1.439127E+01   -1.439127E+01   
 4.100000E-02   -1.612605E+01   -1.612605E+01   
 4.200000E-02   -1.831292E+01   -1.831292E+01   
 4.300000E-02   -1.519933E+01   -1.519933E+01   
 4.400000E-02   -1.336072E+01   -1.336072E+01   
 4.500000E-02   -1.150928E+01   -1.150928E+01   
 4.600000E-02   -9.718874E+00   -9.718874E+00   
 4.700000E-02   -7.968091E+00   -7.968091E+00   
 4.800000E-02   -6.177497E+00   -6.177497E+00   
 4.900000E-02   -4.371263E+00   -4.371263E+00   
 5.000000E-02   -2.547218E+00   -2.547218E+00   
 5.100000E-02   -7.039738E-01   -7.039738E-01   
 5.200000E-02    1.159125E+00    1.159125E+00   
 5.300000E-02    3.041976E+00    3.041976E+00   
 5.400000E-02    4.943800E+00    4.943800E+00   
 5.500000E-02    6.863285E+00    6.863285E+00   
 5.600000E-02    8.798718E+00    8.798718E+00   
 5.700000E-02    1.074810E+01    1.074810E+01   
 5.800000E-02    1.270921E+01    1.270921E+01   
 5.900000E-02    1.467968E+01    1.467968E+01   
 6.000000E-02    1.665701E+01    1.665701E+01   
 6.100000E-02    1.863863E+01    1.863863E+01   
 6.200000E-02    2.062188E+01    2.062188E+01   
 6.300000E-02    2.260407E+01    2.260407E+01   
 6.400000E-02    2.458248E+01    2.458248E+01   
 6.500000E-02    2.655437E+01    2.655437E+01   
 6.600000E-02    2.851698E+01    2.851698E+01   
 6.700000E-02    3.046756E+01    3.046756E+01   
 6.800000E-02    3.240338E+01    3.240338E+01   
 6.900000E-02    3.432169E+01    3.432169E+01   
 7.000000E-02    3.621979E+01    3.621979E+01   
 7.100000E-02    3.809500E+01    3.809500E+01   
 7.200000E-02    3.994465E+01    3.994465E+01   
 7.300000E-02    4.176613E+01    4.176613E+01   
 7.400000E-02    4.355685E+01    4.355685E+01   
 7.500000E-02    4.531427E+01    4.531427E+01   
 7.600000E-02    4.703590E+01    4.703590E+01   
 7.700000E-02    4.871928E+01    4.871928E+01   
 7.800000E-02    5.036204E+01    5.036204E+01   
 7.900000E-02    5.196183E+01    5.196183E+01   
 8.000000E-02    5.351639E+01    5.351639E+01   
 8.100000E-02    5.502350E+01    5.502350E+01   
 8.200000E-02    5.648103E+01    5.648103E+01   
 8.300000E-02    5.788690E+01    5.788690E+01   
 8.400000E-02    5.923911E+01    5.923911E+01   
 8.500000E-02    6.053575E+01    6.053575E+01   
 8.600000E-02    6.177497E+01    6.177497E+01   
 8.700000E-02    6.295502E+01    6.295502E+01   
 8.800000E-02    6.407420E+01    6.407420E+01   
 8.900000E-02    6.513094E+01    6.513094E+01   
 9.000000E-02    6.612374E+01    6.612374E+01   
 9.100000E-02    6.705117E+01    6.705117E+01   
 9.200000E-02    6.791193E+01    6.791193E+01   
 9.300000E-02    6.870478E+01    6.870478E+01   
 9.400000E-02    6.942862E+01    6.942862E+01   
 9.500000E-02    7.008239E+01    7.008239E+01   
 9.600000E-02    7.066518E+01    7.066518E+01   
 9.700000E-02    7.117616E+01    7.117616E+01   
 9.800000E-02    7.161461E+01    7.161461E+01   
 9.900000E-02    7.197989E+01    7.197989E+01   
 1.000000E-01    7.227149E+01    7.227149E+01   
 1.010000E-01    7.248899E+01    7.248899E+01   
 1.020000E-01    7.263209E+01    7.263209E+01   
 1.030000E-01    7.270058E+01    7.270058E+01   
 1.040000E-01    7.269437E+01    7.269437E+01   
 1.050000E-01    7.261347E+01    7.261347E+01   
 1.060000E-01    7.245798E+01    7.245798E+01   
 1.070000E-01    7.222813E+01    7.222813E+01   
 1.080000E-01    7.192425E+01    7.192425E+01   
 1.090000E-01    7.154677E+01    7.154677E+01   
 1.100000E-01    7.109622E+01    7.109622E+01   
 1.110000E-01    7.057325E+01    7.057325E+01   
 1.120000E-01    6.997860E+01    6.997860E+01   
 1.130000E-01    6.931311E+01    6.931311E+01   
 1.140000E-01    6.857773E+01    6.857773E+01   
 1.150000E-01    6.777350E+01    6.777350E+01   
 1.160000E-01    6.690157E+01    6.690157E+01   
 1.170000E-01    6.596318E+01    6.596318E+01   
 1.180000E-01    6.495965E+01    6.495965E+01   
 1.190000E-01    6.389242E+01    6.389242E+01   
 1.200000E-01    6.276301E+01    6.276301E+01   
 1.210000E-01    6.157301E+01    6.157301E+01   
 1.220000E-01    6.032412E+01    6.032412E+01   
 1.230000E-01    5.901811E+01    5.901811E+01   
 1.240000E-01    5.765684E+01    5.765684E+01   
 1.250000E-01    5.624225E+01    5.624225E+01   
 1.260000E-01    5.477634E+01    5.477634E+01   
 1.270000E-01    5.326119E+01    5.326119E+01   
 1.280000E-01    5.169897E+01    5.169897E+01   
 1.290000E-01    5.009188E+01    5.009188E+01   
 1.300000E-01    4.844222E+01    4.844222E+01   
 1.310000E-01    4.675233E+01    4.675233E+01   
 1.320000E-01    4.502460E+01    4.502460E+01   
 1.330000E-01    4.326150E+01    4.326150E+01   
 1.340000E-01    4.146553E+01    4.146553E+01   
 1.350000E-01    3.963924E+01    3.963924E+01   
 1.360000E-01    3.778523E+01    3.778523E+01   
 1.370000E-01    3.590613E+01    3.590613E+01   
 1.380000E-01    3.400462E+01    3.400462E+01   
 1.390000E-01    3.208339E+01    3.208339E+01   
 1.400000E-01    3.014517E+01    3.014517E+01   
 1.410000E-01    2.819272E+01    2.819272E+01   
 1.420000E-01    2.622882E+01    2.622882E+01   
 1.430000E-01    2.425625E+01    2.425625E+01   
 1.440000E-01    2.227781E+01    2.227781E+01   
 1.450000E-01    2.029633E+01    2.029633E+01   
 1.460000E-01    1.831461E+01    1.831461E+01   
 1.470000E-01    1.633547E+01    1.633547E+01   
 1.480000E-01    1.436173E+01    1.436173E+01   
 1.490000E-01    1.239618E+01    1.239618E+01   
 1.500000E-01    1.044163E+01    1.044163E+01   
 1.510000E-01    8.500840E+00    8.500840E+00   
 1.520000E-01    6.576580E+00    6.576580E+00   
 1.530000E-01    4.671581E+00    4.671581E+00   
 1.540000E-01    2.788551E+00    2.788551E+00   
 1.550000E-01    9.301647E-01    9.301647E-01   
 1.560000E-01   -9.009363E-01   -9.009363E-01   
 1.570000E-01   -2.702150E+00   -2.702150E+00   
 1.580000E-01   -4.470917E+00   -4.470917E+00   
 1.590000E-01   -6.204724E+00   -6.204724E+00   
 1.600000E-01   -7.901106E+00   -7.901106E+00   
 1.610000E-01   -9.557654E+00   -9.557654E+00   
 1.620000E-01   -1.117201E+01   -1.117201E+01   
 1.630000E-01   -1.274189E+01   -1.274189E+01   
 1.640000E-01   -1.426505E+01   -1.426505E+01   
 1.650000E-01   -1.573933E+01   -1.573933E+01   
 1.660000E-01   -1.716264E+01   -1.716264E+01   
 1.670000E-01   -1.853296E+01   -1.853296E+01   
 1.680000E-01   -1.984833E+01   -1.984833E+01   
 1.690000E-01   -2.110689E+01   -2.110689E+01   
 1.700000E-01   -2.230684E+01   -2.230684E+01   
 1.710000E-01   -2.344650E+01   -2.344650E+01   
 1.720000E-01   -2.452422E+01   -2.452422E+01   
 1.730000E-01   -2.553849E+01   -2.553849E+01   
 1.740000E-01   -2.648786E+01   -2.648786E+01   
 1.750000E-01   -2.737098E+01   -2.737098E+01   
 1.760000E-01   -2.818660E+01   -2.818660E+01   
 1.770000E-01   -2.893356E+01   -2.893356E+01   
 1.780000E-01   -2.961079E+01   -2.961079E+01   
 1.790000E-01   -3.021734E+01   -3.021734E+01   
 1.800000E-01   -3.075235E+01   -3.075235E+01   
 1.810000E-01   -3.121504E+01   -3.121504E+01   
 1.820000E-01   -3.160477E+01   -3.160477E+01   
 1.830000E-01   -3.192098E+01   -3.192098E+01   
 1.840000E-01   -3.216322E+01   -3.216322E+01   
 1.850000E-01   -3.233115E+01   -3.233115E+01   
 1.860000E-01   -3.242453E+01   -3.242453E+01   
 1.870000E-01   -3.244322E+01   -3.244322E+01   
 1.880000E-01   -3.238720E+01   -3.238720E+01   
 1.890000E-01   -3.225655E+01   -3.225655E+01   
 1.900000E-01   -3.205146E+01   -3.205146E+01   
 1.910000E-01   -3.177221E+01   -3.177221E+01   
 1.920000E-01   -3.141921E+01   -3.141921E+01   
 1.930000E-01   -3.099295E+01   -3.099295E+01   
 1.940000E-01   -3.049404E+01   -3.049404E+01   
 1.950000E-01   -2.992319E+01   -2.992319E+01   
 1.960000E-01   -2.928121E+01   -2.928121E+01   
 1.970000E-01   -2.856902E+01   -2.856902E+01   
 1.980000E-01   -2.778762E+01   -2.778762E+01   
 1.990000E-01   -2.693812E+01   -2.693812E+01   
 2.000000E-01   -2.602174E+01   -2.602174E+01   
 2.010000E-01   -2.503977E+01   -2.503977E+01   
 2.020000E-01   -2.399361E+01   -2.399361E+01   
 2.030000E-01   -2.288475E+01   -2.288475E+01   
 2.040000E-01   -2.171476E+01   -2.171476E+01   
 2.050000E-01   -2.048530E+01   -2.048530E+01   
 2.060000E-01   -1.919813E+01   -1.919813E+01   
 2.070000E-01   -1.785507E+01   -1.785507E+01   
 2.080000E-01   -1.645803E+01   -1.645803E+01   
 2.090000E-01   -1.500899E+01   -1.500899E+01   
 2.100000E-01   -1.351002E+01   -1.351002E+01   
 2.110000E-01   -1.196325E+01   -1.196325E+01   
 2.120000E-01   -1.037086E+01   -1.037086E+01   
 2.130000E-01   -8.735136E+00   -8.735136E+00   
 2.140000E-01   -7.058388E+00   -7.058388E+00   
 2.150000E-01   -5.343002E+00   -5.343002E+00   
 2.160000E-01   -3.591417E+00   -3.591417E+00   
 2.170000E-01   -1.806121E+00   -1.806121E+00   
 2.180000E-01    1.034838E-02    1.034838E-02   
 2.190000E-01    1.855410E+00    1.855410E+00   
 2.200000E-01    3.726442E+00    3.726442E+00   
 2.210000E-01    5.620786E+00    5.620786E+00   
 2.220000E-01    7.535749E+00    7.535749E+00   
 2.230000E-01    9.468610E+00    9.468610E+00   
 2.240000E-01    1.141662E+01    1.141662E+01   
 2.250000E-01    1.337702E+01    1.337702E+01   
 2.260000E-01    1.534701E+01    1.534701E+01   
 2.270000E-01    1.732380E+01    1.732380E+01   
 2.280000E-01    1.930458E+01    1.930458E+01   
 2.290000E-01    2.128654E+01    2.128654E+01   
 2.300000E-01    2.326685E+01    2.326685E+01   
 2.310000E-01    2.524271E+01    2.524271E+01   
 2.320000E-01    2.721130E+01    2.721130E+01   
 2.330000E-01    2.916983E+01    2.916983E+01   
 2.340000E-01    3.111551E+01    3.111551E+01   
 2.350000E-01    3.304559E+01    3.304559E+01   
 2.360000E-01    3.495731E+01    3.495731E+01   
 2.370000E-01    3.684797E+01    3.684797E+01   
 2.380000E-01    3.871486E+01    3.871486E+01   
 2.390000E-01    4.055535E+01    4.055535E+01   
 2.400000E-01    4.236682E+01    4.236682E+01   
 2.410000E-01    4.414668E+01    4.414668E+01   
 2.420000E-01    4.589242E+01    4.589242E+01   
 2.430000E-01    4.760155E+01    4.760155E+01   
 2.440000E-01    4.927164E+01    4.927164E+01   
 2.450000E-01    5.090032E+01    5.090032E+01   
 2.460000E-01    5.248527E+01    5.248527E+01   
 2.470000E-01    5.402425E+01    5.402425E+01   
 2.480000E-01    5.551507E+01    5.551507E+01   
 2.490000E-01    5.695560E+01    5.695560E+01   
 2.500000E-01    5.834380E+01    5.834380E+01   
 2.510000E-01    5.967770E+01    5.967770E+01   
 2.520000E-01    6.095540E+01    6.095540E+01   
 2.530000E-01    6.217508E+01    6.217508E+01   
 2.540000E-01    6.333502E+01    6.333502E+01   
 2.550000E-01    6.443356E+01    6.443356E+01   
 2.560000E-01    6.546915E+01    6.546915E+01   
 2.570000E-01    6.644031E+01    6.644031E+01   
 2.580000E-01    6.734566E+01    6.734566E+01   
 2.590000E-01    6.818391E+01    6.818391E+01   
 2.600000E-01    6.895388E+01    6.895388E+01   
 2.610000E-01    6.965447E+01    6.965447E+01   
 2.620000E-01    7.028468E+01    7.028468E+01   
 2.630000E-01    7.084363E+01    7.084363E+01   
 2.640000E-01    7.133050E+01    7.133050E+01   
 2.650000E-01    7.174462E+01    7.174462E+01   
 2.660000E-01    7.208539E+01    7.208539E+01   
 2.670000E-01    7.235234E+01    7.235234E+01   
 2.680000E-01    7.254507E+01    7.254507E+01   
 2.690000E-01    7.266332E+01    7.266332E+01   
 2.700000E-01    7.270691E+01    7.270691E+01   
 2.710000E-01    7.267580E+01    7.267580E+01   
 2.720000E-01    7.257001E+01    7.257001E+01   
 2.730000E-01    7.238971E+01    7.238971E+01   
 2.740000E-01    7.213514E+01    7.213514E+01   
 2.750000E-01    7.180668E+01    7.180668E+01   
 2.760000E-01    7.140477E+01    7.140477E+01   
 2.770000E-01    7.093001E+01    7.093001E+01   
 2.780000E-01    7.038305E+01    7.038305E+01   
 2.790000E-01    6.976469E+01    6.976469E+01   
 2.800000E-01    6.907579E+01    6.907579E+01   
 2.810000E-01    6.831734E+01    6.831734E+01   
 2.820000E-01    6.749042E+01    6.749042E+01   
 2.830000E-01    6.659619E+01    6.659619E+01   
 2.840000E-01    6.563593E+01    6.563593E+01   
 2.850000E-01    6.461101E+01    6.461101E+01   
 2.860000E-01    6.352288E+01    6.352288E+01   
 2.870000E-01    6.237309E+01    6.237309E+01   
 2.880000E-01    6.116327E+01    6.116327E+01   
 2.890000E-01    5.989514E+01    5.989514E+01   
 2.900000E-01    5.857050E+01    5.857050E+01   
 2.910000E-01    5.719124E+01    5.719124E+01   
 2.920000E-01    5.575931E+01    5.575931E+01   
 2.930000E-01    5.427675E+01    5.427675E+01   
 2.940000E-01    5.274567E+01    5.274567E+01   
 2.950000E-01    5.116824E+01    5.116824E+01   
 2.960000E-01    4.954671E+01    4.954671E+01   
 2.970000E-01    4.788337E+01    4.788337E+01   
 2.980000E-01    4.618060E+01    4.618060E+01   
 2.990000E-01    4.444081E+01    4.444081E+01   
 3.000000E-01    4.266647E+01    4.266647E+01   
 3.010000E-01    4.086011E+01    4.086011E+01   
 3.020000E-01    3.902429E+01    3.902429E+01   
 3.030000E-01    3.716162E+01    3.716162E+01   
 3.040000E-01    3.527475E+01    3.527475E+01   
 3.050000E-01    3.336636E+01    3.336636E+01   
 3.060000E-01    3.143916E+01    3.143916E+01   
 3.070000E-01    2.949589E+01    2.949589E+01   
 3.080000E-01    2.753932E+01    2.753932E+01   
 3.090000E-01    2.557221E+01    2.557221E+01   
 3.100000E-01    2.359738E+01    2.359738E+01   
 3.110000E-01    2.161762E+01    2.161762E+01   
 3.120000E-01    1.963574E+01    1.963574E+01   
 3.130000E-01    1.765457E+01    1.765457E+01   
 3.140000E-01    1.567692E+01    1.567692E+01   
 3.150000E-01    1.370559E+01    1.370559E+01   
 3.160000E-01    1.174340E+01    1.174340E+01   
 3.170000E-01    9.793126E+00    9.793126E+00   
 3.180000E-01    7.857543E+00    7.857543E+00   
 3.190000E-01    5.939401E+00    5.939401E+00   
 3.200000E-01    4.041426E+00    4.041426E+00   
 3.210000E-01    2.166314E+00    2.166314E+00   
 3.220000E-01    3.167315E-01    3.167315E-01   
 3.230000E-01   -1.504694E+00   -1.504694E+00   
 3.240000E-01   -3.295375E+00   -3.295375E+00   
 3.250000E-01   -5.052765E+00   -5.052765E+00   
 3.260000E-01   -6.774368E+00   -6.774368E+00   
 3.270000E-01   -8.457738E+00   -8.457738E+00   
 3.280000E-01   -1.010048E+01   -1.010048E+01   
 3.290000E-01   -1.170026E+01   -1.170026E+01   
 3.300000E-01   -1.325481E+01   -1.325481E+01   
 3.310000E-01   -1.476192E+01   -1.476192E+01   
 3.320000E-01   -1.621944E+01   -1.621944E+01   
 3.330000E-01   -1.762531E+01   -1.762531E+01   
 3.340000E-01   -1.897752E+01   -1.897752E+01   
 3.350000E-01   -2.027416E+01   -2.027416E+01   
 3.360000E-01   -2.151338E+01   -2.151338E+01   
 3.370000E-01   -2.269342E+01   -2.269342E+01   
 3.380000E-01   -2.381260E+01   -2.381260E+01   
 3.390000E-01   -2.486934E+01   -2.486934E+01   
 3.400000E-01   -2.586213E+01   -2.586213E+01   
 3.410000E-01   -2.678956E+01   -2.678956E+01   
 3.420000E-01   -2.765032E+01   -2.765032E+01   
 3.430000E-01   -2.844318E+01   -2.844318E+01   
 3.440000E-01   -2.916701E+01   -2.916701E+01   
 3.450000E-01   -2.982078E+01   -2.982078E+01   
 3.460000E-01   -3.040357E+01   -3.040357E+01   
 3.470000E-01   -3.091455E+01   -3.091455E+01   
 3.480000E-01   -3.135299E+01   -3.135299E+01   
 3.490000E-01   -3.171827E+01   -3.171827E+01   
 3.500000E-01   -3.200987E+01   -3.200987E+01   
 3.510000E-01   -3.222737E+01   -3.222737E+01   
 3.520000E-01   -3.237047E+01   -3.237047E+01   
 3.530000E-01   -3.243897E+01   -3.243897E+01   
 3.540000E-01   -3.243275E+01   -3.243275E+01   
 3.550000E-01   -3.235185E+01   -3.235185E+01   
 3.560000E-01   -3.219636E+01   -3.219636E+01   
 3.570000E-01   -3.196651E+01   -3.196651E+01   
 3.580000E-01   -3.166263E+01   -3.166263E+01   
 3.590000E-01   -3.128514E+01   -3.128514E+01   
 3.600000E-01   -3.083459E+01   -3.083459E+01   
 3.610000E-01   -3.031162E+01   -3.031162E+01   
 3.620000E-01   -2.971697E+01   -2.971697E+01   
 3.630000E-01   -2.905148E+01   -2.905148E+01   
 3.640000E-01   -2.831609E+01   -2.831609E+01   
 3.650000E-01   -2.751187E+01   -2.751187E+01   
 3.660000E-01   -2.663994E+01   -2.663994E+01   
 3.670000E-01   -2.570154E+01   -2.570154E+01   
 3.680000E-01   -2.469802E+01   -2.469802E+01   
 3.690000E-01   -2.363079E+01   -2.363079E+01   
 3.700000E-01   -2.250137E+01   -2.250137E+01   
 3.710000E-01   -2.131137E+01   -2.131137E+01   
 3.720000E-01   -2.006248E+01   -2.006248E+01   
 3.730000E-01   -1.875647E+01   -1.875647E+01   
 3.740000E-01   -1.739520E+01   -1.739520E+01   
 3.750000E-01   -1.598060E+01   -1.598060E+01   
 3.760000E-01   -1.451469E+01   -1.451469E+01   
 3.770000E-01   -1.299954E+01   -1.299954E+01   
 3.780000E-01   -1.143732E+01   -1.143732E+01   
 3.790000E-01   -9.830232E+00   -9.830232E+00   
 3.800000E-01   -8.180570E+00   -8.180570E+00   
 3.810000E-01   -6.490675E+00   -6.490675E+00   
 3.820000E-01   -4.762949E+00   -4.762949E+00   
 3.830000E-01   -2.999848E+00   -2.999848E+00   
 3.840000E-01   -1.203877E+00   -1.203877E+00   
 3.850000E-01    6.224117E-01    6.224117E-01   
 3.860000E-01    2.476423E+00    2.476423E+00   
 3.870000E-01    4.355523E+00    4.355523E+00   
 3.880000E-01    6.257040E+00    6.257040E+00   
 3.890000E-01    8.178273E+00    8.178273E+00   
 3.900000E-01    1.011649E+01    1.011649E+01   
 3.910000E-01    1.206894E+01    1.206894E+01   
 3.920000E-01    1.403285E+01    1.403285E+01   
 3.930000E-01    1.600542E+01    1.600542E+01   
 3.940000E-01    1.798385E+01    1.798385E+01   
 3.950000E-01    1.996534E+01    1.996534E+01   
 3.960000E-01    2.194706E+01    2.194706E+01   
 3.970000E-01    2.392620E+01    2.392620E+01   
 3.980000E-01    2.589994E+01    2.589994E+01   
 3.990000E-01    2.786549E+01    2.786549E+01   
 4.000000E-01    2.982005E+01    2.982005E+01   
 4.010000E-01    3.176083E+01    3.176083E+01   
 4.020000E-01    3.368509E+01    3.368509E+01   
 4.030000E-01    3.559009E+01    3.559009E+01   
